# La4Ni3O10 O K edge XAS
# Room temperature
# Horizontal scattering geometry, theta = 15 degrees, 2theta = 95 degrees
# SEXTANTS beamline, SOLEIL synchrotron
# Energy 	 TEY 	 TFY
8.45056e+02 -9.55406e-04 6.13502e-04
8.45270e+02 -5.75298e-04 -9.20253e-04
8.45480e+02 -5.59652e-05 5.97765e-04
8.45674e+02 4.60266e-04 -5.64354e-04
8.45889e+02 1.12640e-03 2.73340e-04
8.46061e+02 2.04170e-03 9.96033e-04
8.46259e+02 2.98456e-03 2.10005e-03
8.46487e+02 4.31201e-03 1.88941e-03
8.46689e+02 5.89413e-03 3.33117e-03
8.46871e+02 7.70439e-03 6.16868e-03
8.47073e+02 1.00853e-02 1.01671e-02
8.47276e+02 1.31331e-02 1.36196e-02
8.47487e+02 1.67798e-02 1.68178e-02
8.47673e+02 2.18856e-02 2.39576e-02
8.47876e+02 2.75738e-02 3.01785e-02
8.48071e+02 3.59158e-02 4.02914e-02
8.48265e+02 4.65868e-02 5.42598e-02
8.48473e+02 6.23049e-02 7.19434e-02
8.48681e+02 8.50305e-02 1.00610e-01
8.48888e+02 1.16582e-01 1.35481e-01
8.49092e+02 1.60028e-01 1.89486e-01
8.49262e+02 2.26554e-01 2.64600e-01
8.49453e+02 3.05973e-01 3.50165e-01
8.49669e+02 4.47818e-01 4.94639e-01
8.49869e+02 6.16254e-01 6.59645e-01
8.50060e+02 7.78369e-01 8.10514e-01
8.50286e+02 9.32304e-01 9.47611e-01
8.50481e+02 1.00000e+00 1.00000e+00
8.50652e+02 9.73389e-01 9.72481e-01
8.50860e+02 8.70935e-01 8.74772e-01
8.51060e+02 7.27883e-01 7.40195e-01
8.51286e+02 5.81051e-01 5.96395e-01
8.51466e+02 4.65545e-01 4.83619e-01
8.51679e+02 3.78353e-01 3.97808e-01
8.51875e+02 3.22277e-01 3.45992e-01
8.52076e+02 2.86190e-01 3.17255e-01
8.52264e+02 2.69554e-01 3.15662e-01
8.52478e+02 2.66043e-01 3.36951e-01
8.52683e+02 2.71912e-01 3.87748e-01
8.52893e+02 2.78677e-01 4.40542e-01
8.53094e+02 2.73013e-01 4.54951e-01
8.53269e+02 2.54181e-01 4.39226e-01
8.53475e+02 2.27794e-01 4.12241e-01
8.53690e+02 2.06759e-01 3.83743e-01
8.53870e+02 1.89160e-01 3.62111e-01
8.54084e+02 1.75007e-01 3.42194e-01
8.54265e+02 1.62962e-01 3.24833e-01
8.54449e+02 1.53590e-01 3.10341e-01
8.54655e+02 1.43906e-01 2.94149e-01
8.54879e+02 1.33581e-01 2.69895e-01
8.55055e+02 1.25078e-01 2.50838e-01
8.55275e+02 1.16193e-01 2.29776e-01
8.55494e+02 1.08286e-01 2.06843e-01
8.55671e+02 1.01985e-01 1.90687e-01
8.55856e+02 9.65719e-02 1.76015e-01
8.56055e+02 9.06467e-02 1.58751e-01
8.56270e+02 8.58410e-02 1.43230e-01
8.56469e+02 8.21554e-02 1.33368e-01
8.56680e+02 7.84887e-02 1.21055e-01
8.56892e+02 7.55161e-02 1.11060e-01
8.57065e+02 7.32399e-02 1.04277e-01
8.57277e+02 7.09720e-02 9.82570e-02
8.57475e+02 6.87644e-02 9.20554e-02
8.57679e+02 6.71909e-02 8.61249e-02
8.57861e+02 6.59196e-02 8.36663e-02
8.58073e+02 6.41579e-02 7.86958e-02
8.58277e+02 6.30631e-02 7.51671e-02
8.58467e+02 6.19086e-02 7.10900e-02
8.58680e+02 6.10506e-02 6.89594e-02
8.58884e+02 6.00739e-02 6.88650e-02
8.59075e+02 5.94343e-02 6.97378e-02
8.59296e+02 5.88850e-02 6.77138e-02
8.59453e+02 5.83591e-02 6.53012e-02
8.59888e+02 5.69603e-02 6.32953e-02
8.60062e+02 5.66364e-02 6.23269e-02
8.60262e+02 5.62659e-02 6.13076e-02
8.60467e+02 5.59961e-02 6.36052e-02
8.60689e+02 5.53524e-02 6.01673e-02
8.60855e+02 5.46811e-02 5.83914e-02
8.61073e+02 5.38419e-02 5.74896e-02
8.61265e+02 5.28687e-02 5.50394e-02
8.61487e+02 5.17584e-02 5.21668e-02
8.61662e+02 5.15144e-02 5.01622e-02
8.61876e+02 5.03665e-02 4.75656e-02
8.62068e+02 4.92965e-02 4.56638e-02
8.62270e+02 4.88175e-02 4.36640e-02
8.62462e+02 4.78467e-02 4.15020e-02
8.62668e+02 4.71113e-02 4.08156e-02
8.62883e+02 4.65265e-02 3.68983e-02
8.63067e+02 4.60030e-02 3.71028e-02
8.63268e+02 4.55757e-02 3.73801e-02
8.63470e+02 4.51756e-02 3.53948e-02
8.63663e+02 4.47035e-02 3.55751e-02
8.63878e+02 4.45163e-02 3.36952e-02
8.64067e+02 4.44212e-02 3.28454e-02
8.64260e+02 4.40146e-02 3.28284e-02
8.64463e+02 4.39005e-02 3.26674e-02
8.64674e+02 4.35528e-02 3.15259e-02
8.64858e+02 4.33915e-02 3.19096e-02
8.65087e+02 4.35273e-02 3.30475e-02
8.65264e+02 4.36934e-02 3.16457e-02
8.65453e+02 4.34970e-02 3.22752e-02
8.65682e+02 4.37041e-02 3.30100e-02
8.65863e+02 4.35211e-02 3.11506e-02
8.66075e+02 4.34966e-02 3.18685e-02
8.66269e+02 4.34281e-02 3.32485e-02
8.66468e+02 4.35397e-02 3.26238e-02
8.66671e+02 4.35283e-02 3.29555e-02
8.66857e+02 4.36569e-02 3.46200e-02
8.67069e+02 4.35897e-02 3.48839e-02
8.67273e+02 4.35525e-02 3.40111e-02
8.67476e+02 4.34777e-02 3.49675e-02
8.67684e+02 4.33292e-02 3.57119e-02
8.67870e+02 4.32416e-02 3.50812e-02
8.68092e+02 4.33243e-02 3.74466e-02
8.68278e+02 4.38044e-02 4.05589e-02
8.68447e+02 4.41114e-02 4.24099e-02
8.68656e+02 4.43778e-02 4.50307e-02
8.68882e+02 4.59710e-02 5.22334e-02
8.69073e+02 4.85666e-02 6.07556e-02
8.69260e+02 5.23429e-02 7.66706e-02
8.69464e+02 5.75438e-02 9.72292e-02
8.69673e+02 6.33588e-02 1.27231e-01
8.69860e+02 6.87792e-02 1.55679e-01
8.70092e+02 7.35735e-02 1.79642e-01
8.70270e+02 7.56601e-02 1.90363e-01
8.70480e+02 7.65523e-02 1.96866e-01
8.70654e+02 7.70299e-02 2.01072e-01
8.70854e+02 7.67281e-02 2.03963e-01
8.71082e+02 7.54082e-02 2.02696e-01
8.71243e+02 7.31558e-02 1.99657e-01
8.71448e+02 6.98634e-02 1.90909e-01
8.71667e+02 6.66429e-02 1.78103e-01
8.71873e+02 6.37492e-02 1.62666e-01
8.72065e+02 6.11505e-02 1.50144e-01
8.72280e+02 5.83791e-02 1.36727e-01
8.72468e+02 5.67687e-02 1.23562e-01
8.72683e+02 5.45591e-02 1.12860e-01
8.72867e+02 5.32926e-02 1.02422e-01
8.73051e+02 5.20710e-02 9.47004e-02
8.73271e+02 5.09861e-02 8.94575e-02
8.73464e+02 5.01914e-02 8.25514e-02
8.73657e+02 4.96383e-02 7.89464e-02
8.73868e+02 4.89450e-02 7.23562e-02
8.74066e+02 4.83936e-02 7.01095e-02
8.74272e+02 4.80035e-02 6.67139e-02
8.74470e+02 4.74655e-02 6.24358e-02
8.74673e+02 4.71554e-02 5.70380e-02
8.74867e+02 4.72274e-02 5.71760e-02
8.75069e+02 4.64303e-02 5.46460e-02
8.75263e+02 4.64655e-02 5.40855e-02
8.75461e+02 4.62701e-02 5.31195e-02
8.75673e+02 4.63107e-02 5.14998e-02
8.75895e+02 4.66385e-02 5.16584e-02
8.76071e+02 4.68256e-02 5.23738e-02
8.76274e+02 4.66426e-02 5.06222e-02
8.76477e+02 4.65840e-02 4.99152e-02
8.76685e+02 4.65258e-02 4.97336e-02
8.76848e+02 4.66092e-02 5.08437e-02
8.77065e+02 4.69817e-02 5.04575e-02
8.77269e+02 4.72209e-02 5.00980e-02
8.77455e+02 4.70741e-02 5.15785e-02
8.77636e+02 4.71547e-02 5.09744e-02
8.77876e+02 4.68728e-02 5.10689e-02
8.78076e+02 4.68962e-02 4.99661e-02
8.78275e+02 4.68993e-02 4.99043e-02
8.78443e+02 4.68194e-02 4.96235e-02
8.78670e+02 4.63924e-02 4.72266e-02
8.78848e+02 4.63166e-02 4.72569e-02
8.79061e+02 4.60244e-02 4.61069e-02
8.79257e+02 4.57845e-02 4.54374e-02
8.79462e+02 4.57545e-02 4.40974e-02
8.79662e+02 4.55295e-02 4.49350e-02
8.79871e+02 4.52759e-02 4.29776e-02
